# TIme [sec], u_max, v_max, w_max [m/s], t_max [K]
0.00000e+00 0.00000e+00 0.00000e+00 0.00000e+00 5.73000e+02
3.99162e-03 1.12932e-01 1.12932e-01 9.14123e-02 5.73000e+02
6.97917e-03 1.91855e-01 1.91854e-01 1.54503e-01 5.73000e+02
9.44940e-03 2.51660e-01 2.51659e-01 2.01645e-01 5.73000e+02
1.16099e-02 2.98486e-01 2.98487e-01 2.38206e-01 5.73000e+02
1.35682e-02 3.35717e-01 3.35718e-01 2.68095e-01 5.73000e+02
1.53855e-02 3.65427e-01 3.65429e-01 2.93183e-01 5.73000e+02
1.71008e-02 3.88905e-01 3.88907e-01 3.14522e-01 5.73000e+02
1.87408e-02 4.07077e-01 4.07079e-01 3.32699e-01 5.73000e+02
2.03247e-02 4.20661e-01 4.20664e-01 3.48485e-01 5.73000e+02
2.18670e-02 4.30281e-01 4.30282e-01 3.62439e-01 5.73000e+02
2.33787e-02 4.36536e-01 4.36538e-01 3.76794e-01 5.73000e+02
2.48668e-02 4.39901e-01 4.39903e-01 3.93662e-01 5.73000e+02
2.63350e-02 4.40667e-01 4.40670e-01 4.09423e-01 5.73000e+02
2.77890e-02 4.41131e-01 4.41132e-01 4.24185e-01 5.73000e+02
2.92300e-02 4.55026e-01 4.55027e-01 4.37989e-01 5.73000e+02
3.06364e-02 4.67691e-01 4.67691e-01 4.50647e-01 5.73000e+02
3.20126e-02 4.79174e-01 4.79174e-01 4.62309e-01 5.73000e+02
3.33622e-02 4.89584e-01 4.89585e-01 4.73095e-01 5.73000e+02
3.46883e-02 4.99030e-01 4.99031e-01 4.83095e-01 5.73000e+02
3.59936e-02 5.08037e-01 5.08039e-01 4.92393e-01 5.73000e+02
3.72797e-02 5.17074e-01 5.17075e-01 5.01050e-01 5.73000e+02
3.85476e-02 5.25750e-01 5.25752e-01 5.09114e-01 5.73000e+02
3.97985e-02 5.34466e-01 5.34468e-01 5.16639e-01 5.73000e+02
4.10332e-02 5.42669e-01 5.42671e-01 5.28993e-01 5.73000e+02
4.22497e-02 5.50382e-01 5.50384e-01 5.39623e-01 5.73000e+02
4.34501e-02 5.57650e-01 5.57652e-01 5.48390e-01 5.73000e+02
4.46364e-02 5.64514e-01 5.64516e-01 5.55351e-01 5.73000e+02
4.58106e-02 5.71006e-01 5.71008e-01 5.60589e-01 5.73000e+02
4.69741e-02 5.77157e-01 5.77159e-01 5.64256e-01 5.73000e+02
4.81285e-02 5.82990e-01 5.82992e-01 5.66618e-01 5.73000e+02
4.92749e-02 5.88527e-01 5.88529e-01 5.67709e-01 5.73000e+02
5.04145e-02 5.93788e-01 5.93790e-01 5.69574e-01 5.73000e+02
5.15472e-02 5.98785e-01 5.98787e-01 5.74178e-01 5.73000e+02
5.26719e-02 6.03781e-01 6.04122e-01 5.78539e-01 5.73000e+02
5.37888e-02 6.14303e-01 6.14614e-01 5.82672e-01 5.73000e+02
5.48922e-02 6.23714e-01 6.23992e-01 5.86577e-01 5.73000e+02
5.59838e-02 6.32069e-01 6.32315e-01 5.90270e-01 5.73000e+02
5.70650e-02 6.39454e-01 6.39667e-01 5.93766e-01 5.73000e+02
5.81370e-02 6.45981e-01 6.46165e-01 5.97210e-01 5.73000e+02
5.92008e-02 6.51742e-01 6.51884e-01 6.00591e-01 5.73000e+02
6.02574e-02 6.56828e-01 6.56950e-01 6.03203e-01 5.73000e+02
6.13078e-02 6.61349e-01 6.61449e-01 6.12966e-01 5.73000e+02
6.23494e-02 6.65392e-01 6.65477e-01 6.23388e-01 5.73000e+02
6.33826e-02 6.69127e-01 6.69194e-01 6.33641e-01 5.73000e+02
6.44077e-02 6.72669e-01 6.72724e-01 6.43711e-01 5.73000e+02
6.54253e-02 6.84764e-01 6.84756e-01 6.53571e-01 5.73000e+02
6.64277e-02 6.97947e-01 6.97949e-01 6.63107e-01 5.73000e+02
6.74146e-02 7.10100e-01 7.10109e-01 6.72270e-01 5.73000e+02
6.83875e-02 7.21327e-01 7.21341e-01 6.81049e-01 5.73000e+02
6.93477e-02 7.31821e-01 7.31839e-01 6.89431e-01 5.73000e+02
7.02961e-02 7.41716e-01 7.41739e-01 6.97859e-01 5.73000e+02
7.12335e-02 7.51030e-01 7.51042e-01 7.07309e-01 5.73000e+02
7.21603e-02 7.59737e-01 7.59759e-01 7.16604e-01 5.73000e+02
7.30771e-02 7.67843e-01 7.67871e-01 7.25741e-01 5.73000e+02
7.39847e-02 7.75292e-01 7.75325e-01 7.34718e-01 5.73000e+02
7.48837e-02 7.82213e-01 7.82250e-01 7.43535e-01 5.73000e+02
7.57748e-02 7.88735e-01 7.88775e-01 7.52186e-01 5.73000e+02
7.66584e-02 7.94933e-01 7.94971e-01 7.60665e-01 5.73000e+02
7.75348e-02 8.00861e-01 8.00900e-01 7.68958e-01 5.73000e+02
7.84046e-02 8.06566e-01 8.06605e-01 7.77054e-01 5.73000e+02
7.92679e-02 8.12047e-01 8.12087e-01 7.84934e-01 5.73000e+02
8.01250e-02 8.17339e-01 8.17375e-01 7.92543e-01 5.73000e+02
8.09764e-02 8.22475e-01 8.22511e-01 8.00332e-01 5.73000e+02
8.18219e-02 8.27439e-01 8.27478e-01 8.08769e-01 5.73000e+02
8.26618e-02 8.32256e-01 8.32303e-01 8.17105e-01 5.73000e+02
8.34961e-02 8.36990e-01 8.37037e-01 8.25331e-01 5.73000e+02
8.43249e-02 8.41595e-01 8.41643e-01 8.33439e-01 5.73000e+02
8.51486e-02 8.46090e-01 8.46139e-01 8.41423e-01 5.73000e+02
8.59672e-02 8.50496e-01 8.50545e-01 8.49276e-01 5.73000e+02
8.67808e-02 8.54834e-01 8.54886e-01 8.56988e-01 5.73000e+02
8.75897e-02 8.59114e-01 8.59165e-01 8.64546e-01 5.73000e+02
8.83939e-02 8.64831e-01 8.64907e-01 8.71933e-01 5.73000e+02
8.91928e-02 8.73994e-01 8.74074e-01 8.79133e-01 5.73000e+02
8.99845e-02 8.82611e-01 8.82693e-01 8.86627e-01 5.73000e+02
9.07693e-02 8.90760e-01 8.90844e-01 8.94396e-01 5.73000e+02
9.15476e-02 8.98460e-01 8.98542e-01 9.02071e-01 5.73000e+02
9.23197e-02 9.05793e-01 9.05877e-01 9.09697e-01 5.73000e+02
9.30860e-02 9.12803e-01 9.12888e-01 9.17284e-01 5.73000e+02
9.38466e-02 9.19496e-01 9.19580e-01 9.24796e-01 5.73000e+02
9.46019e-02 9.25900e-01 9.25984e-01 9.32236e-01 5.73000e+02
9.53521e-02 9.32054e-01 9.32137e-01 9.39595e-01 5.73000e+02
9.60974e-02 9.37995e-01 9.38079e-01 9.46863e-01 5.73000e+02
9.68379e-02 9.43747e-01 9.43830e-01 9.54044e-01 5.73000e+02
9.75739e-02 9.49331e-01 9.49413e-01 9.61136e-01 5.73000e+02
9.83055e-02 9.54773e-01 9.54854e-01 9.68133e-01 5.73000e+02
9.90329e-02 9.60097e-01 9.60177e-01 9.75034e-01 5.73000e+02
9.97561e-02 9.65319e-01 9.65398e-01 9.82092e-01 5.73000e+02
1.00475e-01 9.70444e-01 9.70526e-01 9.89273e-01 5.73000e+02
1.01190e-01 9.75482e-01 9.75562e-01 9.96412e-01 5.73000e+02
1.01902e-01 9.80441e-01 9.80520e-01 1.00350e+00 5.73000e+02
1.02609e-01 9.85335e-01 9.85412e-01 1.01053e+00 5.73000e+02
1.03313e-01 9.90174e-01 9.90249e-01 1.01750e+00 5.73000e+02
1.04012e-01 9.94959e-01 9.95032e-01 1.02441e+00 5.73000e+02
1.04709e-01 9.99689e-01 9.99762e-01 1.03126e+00 5.73000e+02
1.05402e-01 1.00437e+00 1.00445e+00 1.03805e+00 5.73000e+02
1.06091e-01 1.00905e+00 1.00913e+00 1.04477e+00 5.73000e+02
1.06777e-01 1.01368e+00 1.01376e+00 1.05143e+00 5.73000e+02
1.07459e-01 1.01826e+00 1.01834e+00 1.05800e+00 5.73000e+02
1.08139e-01 1.02281e+00 1.02288e+00 1.06450e+00 5.73000e+02
1.08815e-01 1.02730e+00 1.02737e+00 1.07093e+00 5.73000e+02
1.09487e-01 1.03176e+00 1.03183e+00 1.07740e+00 5.73000e+02
1.10157e-01 1.03618e+00 1.03625e+00 1.08412e+00 5.73000e+02
1.10824e-01 1.04055e+00 1.04062e+00 1.09079e+00 5.73000e+02
1.11487e-01 1.04488e+00 1.04494e+00 1.09741e+00 5.73000e+02
1.12148e-01 1.04918e+00 1.04923e+00 1.10398e+00 5.73000e+02
1.12805e-01 1.05344e+00 1.05350e+00 1.11051e+00 5.73000e+02
1.13460e-01 1.05768e+00 1.05773e+00 1.11698e+00 5.73000e+02
1.14112e-01 1.06192e+00 1.06195e+00 1.12340e+00 5.73000e+02
1.14761e-01 1.06615e+00 1.06617e+00 1.12975e+00 5.73000e+02
1.15407e-01 1.07036e+00 1.07038e+00 1.13604e+00 5.73000e+02
1.16050e-01 1.07454e+00 1.07457e+00 1.14226e+00 5.73000e+02
1.16691e-01 1.07871e+00 1.07873e+00 1.14843e+00 5.73000e+02
1.17329e-01 1.08285e+00 1.08287e+00 1.15455e+00 5.73000e+02
1.17964e-01 1.08697e+00 1.08699e+00 1.16060e+00 5.73000e+02
1.18596e-01 1.09107e+00 1.09109e+00 1.16663e+00 5.73000e+02
1.19227e-01 1.09514e+00 1.09516e+00 1.17295e+00 5.73000e+02
1.19854e-01 1.09919e+00 1.09921e+00 1.17923e+00 5.73000e+02
1.20479e-01 1.10321e+00 1.10323e+00 1.18547e+00 5.73000e+02
1.21101e-01 1.10719e+00 1.10722e+00 1.19166e+00 5.73000e+02
1.21721e-01 1.11115e+00 1.11118e+00 1.19780e+00 5.73000e+02
1.22339e-01 1.11579e+00 1.11581e+00 1.20389e+00 5.73000e+02
1.22954e-01 1.12092e+00 1.12094e+00 1.20992e+00 5.73000e+02
1.23566e-01 1.12600e+00 1.12602e+00 1.21589e+00 5.73000e+02
1.24175e-01 1.13104e+00 1.13106e+00 1.22179e+00 5.73000e+02
1.24782e-01 1.13604e+00 1.13606e+00 1.22764e+00 5.73000e+02
1.25386e-01 1.14099e+00 1.14101e+00 1.23345e+00 5.73000e+02
1.25987e-01 1.14591e+00 1.14593e+00 1.23919e+00 5.73000e+02
1.26586e-01 1.15078e+00 1.15080e+00 1.24483e+00 5.73000e+02
1.27183e-01 1.15561e+00 1.15563e+00 1.25064e+00 5.73000e+02
1.27777e-01 1.16040e+00 1.16042e+00 1.25659e+00 5.73000e+02
1.28368e-01 1.16515e+00 1.16517e+00 1.26251e+00 5.73000e+02
1.28957e-01 1.16986e+00 1.16988e+00 1.26837e+00 5.73000e+02
1.29544e-01 1.17453e+00 1.17455e+00 1.27420e+00 5.73000e+02
1.30128e-01 1.17915e+00 1.17918e+00 1.27997e+00 5.73000e+02
1.30710e-01 1.18373e+00 1.18376e+00 1.28570e+00 5.73000e+02
1.31290e-01 1.18827e+00 1.18830e+00 1.29137e+00 5.73000e+02
1.31867e-01 1.19277e+00 1.19280e+00 1.29697e+00 5.73000e+02
1.32442e-01 1.19722e+00 1.19725e+00 1.30253e+00 5.73000e+02
1.33016e-01 1.20161e+00 1.20165e+00 1.30805e+00 5.73000e+02
1.33587e-01 1.20595e+00 1.20599e+00 1.31351e+00 5.73000e+02
1.34155e-01 1.21024e+00 1.21028e+00 1.31888e+00 5.73000e+02
1.34722e-01 1.21449e+00 1.21454e+00 1.32418e+00 5.73000e+02
1.35287e-01 1.21870e+00 1.21875e+00 1.32985e+00 5.73000e+02
1.35850e-01 1.22288e+00 1.22293e+00 1.33548e+00 5.73000e+02
1.36411e-01 1.22704e+00 1.22709e+00 1.34108e+00 5.73000e+02
1.36969e-01 1.23117e+00 1.23123e+00 1.34664e+00 5.73000e+02
1.37526e-01 1.23529e+00 1.23536e+00 1.35215e+00 5.73000e+02
1.38081e-01 1.23940e+00 1.23947e+00 1.35763e+00 5.73000e+02
1.38634e-01 1.24350e+00 1.24357e+00 1.36305e+00 5.73000e+02
1.39185e-01 1.24758e+00 1.24766e+00 1.36842e+00 5.73000e+02
1.39734e-01 1.25166e+00 1.25174e+00 1.37374e+00 5.73000e+02
1.40282e-01 1.25572e+00 1.25581e+00 1.37902e+00 5.73000e+02
1.40827e-01 1.25977e+00 1.25986e+00 1.38424e+00 5.73000e+02
1.41371e-01 1.26381e+00 1.26390e+00 1.38939e+00 5.73000e+02
1.41913e-01 1.26783e+00 1.26792e+00 1.39441e+00 5.73000e+02
1.42453e-01 1.27184e+00 1.27194e+00 1.39968e+00 5.73000e+02
1.42992e-01 1.27584e+00 1.27594e+00 1.40508e+00 5.73000e+02
1.43528e-01 1.27983e+00 1.27993e+00 1.41045e+00 5.73000e+02
1.44063e-01 1.28381e+00 1.28390e+00 1.41578e+00 5.73000e+02
1.44597e-01 1.28778e+00 1.28788e+00 1.42108e+00 5.73000e+02
1.45128e-01 1.29174e+00 1.29184e+00 1.42634e+00 5.73000e+02
1.45658e-01 1.29570e+00 1.29580e+00 1.43155e+00 5.73000e+02
1.46186e-01 1.29964e+00 1.29974e+00 1.43670e+00 5.73000e+02
1.46713e-01 1.30358e+00 1.30368e+00 1.44182e+00 5.73000e+02
1.47237e-01 1.30751e+00 1.30760e+00 1.44689e+00 5.73000e+02
1.47761e-01 1.31142e+00 1.31151e+00 1.45191e+00 5.73000e+02
1.48282e-01 1.31531e+00 1.31540e+00 1.45686e+00 5.73000e+02
1.48802e-01 1.31918e+00 1.31927e+00 1.46167e+00 5.73000e+02
1.49321e-01 1.32303e+00 1.32312e+00 1.46657e+00 5.73000e+02
1.49838e-01 1.32686e+00 1.32695e+00 1.47176e+00 5.73000e+02
1.50353e-01 1.33069e+00 1.33078e+00 1.47692e+00 5.73000e+02
1.50867e-01 1.33451e+00 1.33460e+00 1.48206e+00 5.73000e+02
1.51379e-01 1.33834e+00 1.33843e+00 1.48716e+00 5.73000e+02
1.51890e-01 1.34218e+00 1.34227e+00 1.49222e+00 5.73000e+02
1.52400e-01 1.34603e+00 1.34611e+00 1.49724e+00 5.73000e+02
1.52907e-01 1.34990e+00 1.34998e+00 1.50222e+00 5.73000e+02
1.53414e-01 1.35378e+00 1.35386e+00 1.50715e+00 5.73000e+02
1.53918e-01 1.35769e+00 1.35776e+00 1.51204e+00 5.73000e+02
1.54422e-01 1.36162e+00 1.36170e+00 1.51689e+00 5.73000e+02
1.54924e-01 1.36559e+00 1.36566e+00 1.52164e+00 5.73000e+02
1.55424e-01 1.36958e+00 1.36964e+00 1.52627e+00 5.73000e+02
1.55923e-01 1.37358e+00 1.37364e+00 1.53084e+00 5.73000e+02
1.56421e-01 1.37761e+00 1.37766e+00 1.53585e+00 5.73000e+02
1.56917e-01 1.38165e+00 1.38170e+00 1.54083e+00 5.73000e+02
1.57411e-01 1.38571e+00 1.38576e+00 1.54578e+00 5.73000e+02
1.57904e-01 1.38987e+00 1.38991e+00 1.55069e+00 5.73000e+02
1.58396e-01 1.39403e+00 1.39407e+00 1.55558e+00 5.73000e+02
1.58886e-01 1.39820e+00 1.39823e+00 1.56043e+00 5.73000e+02
1.59375e-01 1.40236e+00 1.40239e+00 1.56523e+00 5.73000e+02
1.59862e-01 1.40652e+00 1.40654e+00 1.57000e+00 5.73000e+02
1.60348e-01 1.41066e+00 1.41068e+00 1.57472e+00 5.73000e+02
1.60833e-01 1.41479e+00 1.41481e+00 1.57939e+00 5.73000e+02
1.61316e-01 1.41891e+00 1.41893e+00 1.58395e+00 5.73000e+02
1.61798e-01 1.42301e+00 1.42302e+00 1.58841e+00 5.73000e+02
1.62279e-01 1.42709e+00 1.42710e+00 1.59278e+00 5.73000e+02
1.62758e-01 1.43115e+00 1.43116e+00 1.59753e+00 5.73000e+02
1.63236e-01 1.43519e+00 1.43520e+00 1.60233e+00 5.73000e+02
1.63712e-01 1.43920e+00 1.43921e+00 1.60711e+00 5.73000e+02
1.64187e-01 1.44319e+00 1.44319e+00 1.61186e+00 5.73000e+02
1.64661e-01 1.44715e+00 1.44715e+00 1.61658e+00 5.73000e+02
1.65134e-01 1.45108e+00 1.45108e+00 1.62127e+00 5.73000e+02
1.65605e-01 1.45499e+00 1.45498e+00 1.62591e+00 5.73000e+02
1.66075e-01 1.45886e+00 1.45886e+00 1.63053e+00 5.73000e+02
1.66544e-01 1.46271e+00 1.46271e+00 1.63510e+00 5.73000e+02
1.67011e-01 1.46654e+00 1.46653e+00 1.63960e+00 5.73000e+02
1.67478e-01 1.47033e+00 1.47032e+00 1.64400e+00 5.73000e+02
1.67943e-01 1.47410e+00 1.47409e+00 1.64831e+00 5.73000e+02
1.68407e-01 1.47784e+00 1.47783e+00 1.65253e+00 5.73000e+02
1.68870e-01 1.48155e+00 1.48154e+00 1.65700e+00 5.73000e+02
1.69331e-01 1.48523e+00 1.48522e+00 1.66165e+00 5.73000e+02
1.69792e-01 1.48889e+00 1.48888e+00 1.66628e+00 5.73000e+02
1.70251e-01 1.49255e+00 1.49258e+00 1.67089e+00 5.73000e+02
1.70709e-01 1.49674e+00 1.49676e+00 1.67546e+00 5.73000e+02
1.71166e-01 1.50090e+00 1.50092e+00 1.68001e+00 5.73000e+02
1.71622e-01 1.50502e+00 1.50504e+00 1.68452e+00 5.73000e+02
1.72077e-01 1.50912e+00 1.50913e+00 1.68900e+00 5.73000e+02
1.72530e-01 1.51319e+00 1.51320e+00 1.69343e+00 5.73000e+02
1.72982e-01 1.51722e+00 1.51723e+00 1.69778e+00 5.73000e+02
1.73433e-01 1.52124e+00 1.52124e+00 1.70203e+00 5.73000e+02
1.73883e-01 1.52522e+00 1.52522e+00 1.70620e+00 5.73000e+02
1.74332e-01 1.52917e+00 1.52918e+00 1.71028e+00 5.73000e+02
1.74780e-01 1.53309e+00 1.53310e+00 1.71450e+00 5.73000e+02
1.75226e-01 1.53698e+00 1.53698e+00 1.71901e+00 5.73000e+02
1.75672e-01 1.54084e+00 1.54084e+00 1.72350e+00 5.73000e+02
1.76116e-01 1.54467e+00 1.54467e+00 1.72796e+00 5.73000e+02
1.76559e-01 1.54847e+00 1.54847e+00 1.73241e+00 5.73000e+02
1.77001e-01 1.55224e+00 1.55224e+00 1.73682e+00 5.73000e+02
1.77442e-01 1.55599e+00 1.55599e+00 1.74120e+00 5.73000e+02
1.77882e-01 1.55972e+00 1.55971e+00 1.74555e+00 5.73000e+02
1.78321e-01 1.56342e+00 1.56341e+00 1.74985e+00 5.73000e+02
1.78759e-01 1.56710e+00 1.56709e+00 1.75405e+00 5.73000e+02
1.79196e-01 1.57076e+00 1.57075e+00 1.75817e+00 5.73000e+02
1.79632e-01 1.57439e+00 1.57438e+00 1.76222e+00 5.73000e+02
1.80067e-01 1.57802e+00 1.57801e+00 1.76618e+00 5.73000e+02
1.80501e-01 1.58162e+00 1.58161e+00 1.77016e+00 5.73000e+02
1.80934e-01 1.58521e+00 1.58520e+00 1.77455e+00 5.73000e+02
1.81367e-01 1.58879e+00 1.58878e+00 1.77891e+00 5.73000e+02
1.81798e-01 1.59235e+00 1.59234e+00 1.78326e+00 5.73000e+02
1.82228e-01 1.59590e+00 1.59589e+00 1.78758e+00 5.73000e+02
1.82657e-01 1.59944e+00 1.59943e+00 1.79188e+00 5.73000e+02
1.83085e-01 1.60297e+00 1.60296e+00 1.79615e+00 5.73000e+02
1.83512e-01 1.60650e+00 1.60648e+00 1.80039e+00 5.73000e+02
1.83939e-01 1.61002e+00 1.61001e+00 1.80456e+00 5.73000e+02
1.84364e-01 1.61354e+00 1.61352e+00 1.80864e+00 5.73000e+02
1.84788e-01 1.61705e+00 1.61704e+00 1.81264e+00 5.73000e+02
1.85212e-01 1.62057e+00 1.62056e+00 1.81658e+00 5.73000e+02
1.85635e-01 1.62409e+00 1.62407e+00 1.82043e+00 5.73000e+02
1.86056e-01 1.62761e+00 1.62760e+00 1.82421e+00 5.73000e+02
1.86477e-01 1.63114e+00 1.63112e+00 1.82847e+00 5.73000e+02
1.86897e-01 1.63467e+00 1.63465e+00 1.83273e+00 5.73000e+02
1.87316e-01 1.63821e+00 1.63819e+00 1.83696e+00 5.73000e+02
1.87734e-01 1.64175e+00 1.64174e+00 1.84118e+00 5.73000e+02
1.88152e-01 1.64531e+00 1.64529e+00 1.84537e+00 5.73000e+02
1.88568e-01 1.64887e+00 1.64886e+00 1.84954e+00 5.73000e+02
1.88983e-01 1.65245e+00 1.65244e+00 1.85368e+00 5.73000e+02
1.89398e-01 1.65604e+00 1.65603e+00 1.85773e+00 5.73000e+02
1.89812e-01 1.65964e+00 1.65963e+00 1.86170e+00 5.73000e+02
1.90224e-01 1.66325e+00 1.66324e+00 1.86560e+00 5.73000e+02
1.90636e-01 1.66688e+00 1.66687e+00 1.86943e+00 5.73000e+02
1.91047e-01 1.67052e+00 1.67051e+00 1.87318e+00 5.73000e+02
1.91458e-01 1.67418e+00 1.67417e+00 1.87686e+00 5.73000e+02
1.91867e-01 1.67785e+00 1.67784e+00 1.88090e+00 5.73000e+02
1.92275e-01 1.68154e+00 1.68153e+00 1.88505e+00 5.73000e+02
1.92683e-01 1.68524e+00 1.68523e+00 1.88919e+00 5.73000e+02
1.93090e-01 1.68896e+00 1.68895e+00 1.89330e+00 5.73000e+02
1.93496e-01 1.69269e+00 1.69268e+00 1.89740e+00 5.73000e+02
1.93901e-01 1.69643e+00 1.69643e+00 1.90147e+00 5.73000e+02
1.94305e-01 1.70019e+00 1.70019e+00 1.90550e+00 5.73000e+02
1.94708e-01 1.70397e+00 1.70396e+00 1.90944e+00 5.73000e+02
1.95111e-01 1.70776e+00 1.70775e+00 1.91330e+00 5.73000e+02
1.95512e-01 1.71156e+00 1.71155e+00 1.91710e+00 5.73000e+02
1.95913e-01 1.71537e+00 1.71537e+00 1.92084e+00 5.73000e+02
1.96313e-01 1.71919e+00 1.71919e+00 1.92450e+00 5.73000e+02
1.96712e-01 1.72303e+00 1.72302e+00 1.92808e+00 5.73000e+02
1.97110e-01 1.72687e+00 1.72687e+00 1.93190e+00 5.73000e+02
1.97508e-01 1.73072e+00 1.73072e+00 1.93595e+00 5.73000e+02
1.97904e-01 1.73458e+00 1.73457e+00 1.93999e+00 5.73000e+02
1.98300e-01 1.73844e+00 1.73844e+00 1.94401e+00 5.73000e+02
1.98695e-01 1.74231e+00 1.74231e+00 1.94801e+00 5.73000e+02
1.99089e-01 1.74618e+00 1.74618e+00 1.95198e+00 5.73000e+02
1.99482e-01 1.75006e+00 1.75006e+00 1.95590e+00 5.73000e+02
1.99875e-01 1.75394e+00 1.75394e+00 1.95973e+00 5.73000e+02
2.00266e-01 1.75782e+00 1.75782e+00 1.96351e+00 5.73000e+02
2.00657e-01 1.76170e+00 1.76170e+00 1.96721e+00 5.73000e+02
2.01047e-01 1.76558e+00 1.76559e+00 1.97085e+00 5.73000e+02
2.01436e-01 1.76946e+00 1.76947e+00 1.97443e+00 5.73000e+02
2.01825e-01 1.77334e+00 1.77335e+00 1.97792e+00 5.73000e+02
2.02212e-01 1.77722e+00 1.77722e+00 1.98152e+00 5.73000e+02
2.02599e-01 1.78109e+00 1.78110e+00 1.98548e+00 5.73000e+02
2.02985e-01 1.78496e+00 1.78496e+00 1.98942e+00 5.73000e+02
2.03371e-01 1.78882e+00 1.78883e+00 1.99335e+00 5.73000e+02
2.03755e-01 1.79267e+00 1.79268e+00 1.99726e+00 5.73000e+02
2.04139e-01 1.79652e+00 1.79653e+00 2.00114e+00 5.73000e+02
2.04522e-01 1.80037e+00 1.80037e+00 2.00495e+00 5.73000e+02
2.04904e-01 1.80420e+00 1.80421e+00 2.00869e+00 5.73000e+02
2.05285e-01 1.80803e+00 1.80804e+00 2.01237e+00 5.73000e+02
2.05666e-01 1.81185e+00 1.81185e+00 2.01599e+00 5.73000e+02
2.06046e-01 1.81566e+00 1.81567e+00 2.01955e+00 5.73000e+02
2.06425e-01 1.81946e+00 1.81947e+00 2.02304e+00 5.73000e+02
2.06804e-01 1.82325e+00 1.82326e+00 2.02646e+00 5.73000e+02
2.07181e-01 1.82704e+00 1.82705e+00 2.02984e+00 5.73000e+02
2.07558e-01 1.83081e+00 1.83082e+00 2.03370e+00 5.73000e+02
2.07935e-01 1.83458e+00 1.83459e+00 2.03755e+00 5.73000e+02
2.08310e-01 1.83834e+00 1.83835e+00 2.04139e+00 5.73000e+02
2.08685e-01 1.84209e+00 1.84210e+00 2.04522e+00 5.73000e+02
2.09059e-01 1.84583e+00 1.84584e+00 2.04901e+00 5.73000e+02
2.09433e-01 1.84956e+00 1.84957e+00 2.05273e+00 5.73000e+02
2.09805e-01 1.85328e+00 1.85329e+00 2.05638e+00 5.73000e+02
2.10177e-01 1.85700e+00 1.85701e+00 2.05999e+00 5.73000e+02
2.10549e-01 1.86071e+00 1.86072e+00 2.06354e+00 5.73000e+02
2.10919e-01 1.86441e+00 1.86441e+00 2.06702e+00 5.73000e+02
2.11289e-01 1.86810e+00 1.86811e+00 2.07044e+00 5.73000e+02
2.11658e-01 1.87178e+00 1.87179e+00 2.07379e+00 5.73000e+02
2.12027e-01 1.87546e+00 1.87547e+00 2.07706e+00 5.73000e+02
2.12395e-01 1.87914e+00 1.87914e+00 2.08071e+00 5.73000e+02
2.12762e-01 1.88280e+00 1.88281e+00 2.08448e+00 5.73000e+02
2.13128e-01 1.88646e+00 1.88647e+00 2.08825e+00 5.73000e+02
2.13494e-01 1.89012e+00 1.89012e+00 2.09199e+00 5.73000e+02
2.13859e-01 1.89377e+00 1.89377e+00 2.09570e+00 5.73000e+02
2.14224e-01 1.89741e+00 1.89742e+00 2.09933e+00 5.73000e+02
2.14588e-01 1.90105e+00 1.90106e+00 2.10292e+00 5.73000e+02
2.14951e-01 1.90469e+00 1.90470e+00 2.10645e+00 5.73000e+02
2.15314e-01 1.90832e+00 1.90833e+00 2.10993e+00 5.73000e+02
2.15675e-01 1.91195e+00 1.91195e+00 2.11335e+00 5.73000e+02
2.16037e-01 1.91557e+00 1.91558e+00 2.11670e+00 5.73000e+02
2.16397e-01 1.91920e+00 1.91920e+00 2.11999e+00 5.73000e+02
2.16757e-01 1.92282e+00 1.92282e+00 2.12320e+00 5.73000e+02
2.17117e-01 1.92643e+00 1.92644e+00 2.12661e+00 5.73000e+02
2.17475e-01 1.93005e+00 1.93005e+00 2.13030e+00 5.73000e+02
2.17834e-01 1.93366e+00 1.93366e+00 2.13399e+00 5.73000e+02
2.18191e-01 1.93726e+00 1.93727e+00 2.13766e+00 5.73000e+02
